0.035031847,0.037154989,0.044585987,0.063694268,0.076433121,0.085987261,0.089171975,0.083864119,0.072186837,0.061571125,0.049893843,0.039278132,0.029723992,0.013800425,-0.003184713,-0.010615711,-0.014861996,-0.018046709,-0.021231423,-0.023354565,-0.024416136,-0.024416136,-0.024416136,-0.023354565,-0.022292994,-0.021231423,-0.018046709,-0.014861996,-0.00955414,0,0.018046709,0.055201699,0.110403397,0.187898089,0.288747346,0.407643312,0.540339703,0.673036093,0.788747346,0.860934183,0.86836518,0.835456476,0.715498938,0.542462845,0.350318471,0.173036093,0.040339703,-0.037154989,-0.06581741,-0.072186837,-0.076433121,-0.080679406,-0.08492569,-0.087048832,-0.089171975,-0.090233546,-0.091295117,-0.091295117,-0.090233546,-0.089171975,-0.089171975,-0.088110403,-0.087048832,-0.087048832,-0.087048832,-0.087048832,-0.085987261,-0.085987261,-0.08492569,-0.08492569,-0.08492569,-0.083864119,-0.083864119,-0.082802548,-0.081740977,-0.079617834,-0.077494692,-0.07537155,-0.073248408,-0.070063694,-0.06581741,-0.060509554,-0.049893843,-0.043524416,-0.040339703,-0.037154989,-0.035031847,-0.032908705,-0.02866242,-0.022292994,-0.013800425,-0.005307856,0.002123142,0.011677282,0.021231423,0.02866242,0.037154989,0.044585987,0.053078556,0.061571125,0.069002123,0.07537155,0.078556263,0.082802548,0.090233546,0.106157113,0.122080679,0.132696391,0.13163482,0.118895966,0.108280255,0.099787686,0.092356688,0.088110403,0.083864119,0.080679406,0.076433121,0.073248408,0.070063694,0.064755839,0.060509554,0.055201699,0.045647558,0.026539278,0.015923567,0.010615711,0.007430998,0.004246285,0.002123142,0,-0.002123142,-0.005307856,-0.007430998,-0.010615711,-0.013800425,-0.018046709,-0.025477707,-0.030785563,-0.030785563,-0.025477707,-0.020169851,-0.016985138,-0.013800425,-0.010615711,-0.008492569,-0.006369427,-0.005307856,-0.004246285,-0.003184713,-0.002123142,-0.002123142,-0.003184713,-0.004246285,-0.005307856,-0.006369427,-0.007430998,-0.007430998,-0.008492569,-0.00955414,-0.011677282,-0.014861996,-0.015923567,-0.013800425,-0.00955414,-0.002123142,0.006369427,0.018046709,0.020169851,0.021231423,0.022292994,0.023354565,0.024416136,0.025477707,0.026539278,0.02866242,0.030785563,0.031847134,0.033970276,0.035031847,0.035031847,0.036093418,0.038216561,0.039278132,0.040339703,0.038216561,0.033970276,0.02866242,0.023354565,0.020169851,0.015923567,0.012738854,0.008492569,0.004246285,0.002123142,0.001061571,0.003184713,0.005307856,0.007430998,0.00955414,0.012738854,0.014861996,0.018046709,0.022292994,0.025477707,0.02866242,0.030785563,0.035031847,0.039278132,0.045647558,0.048832272,0.045647558,0.039278132,0.035031847,0.030785563,0.027600849,0.025477707,0.025477707,0.02866242,0.032908705,0.039278132,0.050955414,0.071125265,0.082802548,0.090233546,0.095541401,0.098726115,0.095541401,0.090233546,0.082802548,0.076433121,0.067940552,0.060509554,0.055201699,0.049893843,0.042462845,0.032908705,0.022292994,0.013800425,0.008492569,0.003184713,0,-0.001061571,-0.003184713,-0.005307856,-0.00955414,-0.011677282,-0.008492569,-0.001061571,0.01910828,0.047770701,0.095541401,0.164543524,0.257961783,0.374734607,0.50955414,0.651804671,0.787685775,0.898089172,0.962845011,0.966029724,0.919320594,0.786624204,0.595541401,0.385350318,0.194267516,0.05626327,-0.018046709,-0.045647558,-0.057324841,-0.07537155,-0.092356688,-0.108280255,-0.108280255,-0.093418259,-0.081740977,-0.070063694,-0.064755839,-0.06581741,-0.069002123,-0.071125265,-0.073248408,-0.07537155,-0.072186837,-0.067940552,-0.062632696,-0.05626327,-0.057324841,-0.067940552,-0.07537155,-0.081740977,-0.087048832,-0.091295117,-0.092356688,-0.090233546,-0.085987261,-0.080679406,-0.07537155,-0.070063694,-0.06581741,-0.059447983,-0.053078556,-0.045647558,-0.038216561,-0.031847134,-0.026539278,-0.021231423,-0.016985138,-0.012738854,-0.008492569,-0.006369427,-0.004246285,-0.003184713,-0.001061571,0.001061571,0.004246285,0.012738854,0.031847134,0.050955414,0.06581741,0.078556263,0.085987261,0.091295117,0.095541401,0.098726115,0.100849257,0.10403397,0.107218684,0.110403397,0.112526539,0.116772824,0.119957537,0.122080679,0.122080679,0.119957537,0.114649682,0.108280255,0.096602972,0.076433121,0.063694268,0.055201699,0.045647558,0.033970276,0.024416136,0.016985138,0.010615711,0.005307856,0.001061571,-0.001061571,-0.003184713,-0.008492569,-0.016985138,-0.023354565,-0.027600849,-0.030785563,-0.032908705,-0.035031847,-0.035031847,-0.033970276,-0.031847134,-0.027600849,-0.024416136,-0.020169851,-0.013800425,-0.00955414,-0.014861996,-0.024416136,-0.030785563,-0.036093418,-0.041401274,-0.044585987,-0.045647558,-0.04670913,-0.04670913,-0.047770701,-0.048832272,-0.049893843,-0.050955414,-0.050955414,-0.045647558,-0.038216561,-0.027600849,-0.014861996,-0.010615711,-0.008492569,-0.007430998,-0.006369427,-0.004246285,-0.003184713,-0.002123142,-0.001061571,-0.001061571,-0.001061571,-0.001061571,0,0,0,0,0,0,0,0,0.001061571,0.002123142,0.004246285,0.005307856,0.006369427,0.007430998,0.008492569,0.00955414,0.010615711,0.011677282,0.013800425,0.014861996,0.016985138,0.01910828,0.021231423,0.022292994,0.023354565,0.023354565,0.021231423,0.01910828,0.016985138,0.013800425,0.010615711,0.007430998,0.004246285,0,-0.003184713,-0.005307856,-0.004246285,-0.002123142,0,0.004246285,0.011677282,0.026539278,0.037154989,0.042462845,0.04670913,0.052016985,0.057324841,0.062632696,0.067940552,0.072186837,0.078556263,0.082802548,0.087048832,0.091295117,0.098726115,0.106157113,0.100849257,0.08492569,0.058386412,0.043524416,0.031847134,0.022292994,0.010615711,0.001061571,-0.005307856,-0.00955414,-0.008492569,-0.005307856,-0.002123142,0.001061571,0,-0.006369427,-0.011677282,-0.015923567,-0.020169851,-0.021231423,-0.01910828,-0.012738854,-0.001061571,0.029723992,0.083864119,0.157112527,0.248407643,0.356687898,0.478768577,0.610403397,0.740976645,0.853503185,0.920382166,0.927813163,0.89596603,0.780254777,0.605095541,0.394904459,0.183651805,0.010615711,-0.097664544,-0.124203822,-0.119957537,-0.095541401,-0.082802548,-0.090233546,-0.112526539,-0.1507431,-0.162420382,-0.166666667,-0.168789809,-0.168789809,-0.164543524,-0.154989384,-0.148619958,-0.142250531,-0.136942675,-0.132696391,-0.127388535,-0.121019108,-0.111464968,-0.106157113,-0.101910828,-0.099787686,-0.097664544,-0.096602972,-0.095541401,-0.096602972,-0.098726115,-0.099787686,-0.101910828,-0.10403397,-0.108280255,-0.106157113,-0.095541401,-0.087048832,-0.079617834,-0.072186837,-0.063694268,-0.055201699,-0.048832272,-0.044585987,-0.039278132,-0.035031847,-0.031847134,-0.029723992,-0.027600849,-0.025477707,-0.023354565,-0.016985138,-0.004246285,0.011677282,0.030785563,0.054140127,0.074309979,0.087048832,0.095541401,0.100849257,0.10403397,0.106157113,0.108280255,0.109341826,0.110403397,0.110403397,0.107218684,0.10403397,0.098726115,0.091295117,0.07537155,0.059447983,0.043524416,0.029723992,0.015923567,0.00955414,0.007430998,0.005307856,0.004246285,0.002123142,0.001061571,0,-0.002123142,-0.004246285,-0.006369427,-0.008492569,-0.011677282,-0.015923567,-0.024416136,-0.043524416,-0.053078556,-0.058386412,-0.062632696,-0.06581741,-0.066878981,-0.066878981,-0.064755839,-0.060509554,-0.055201699,-0.049893843,-0.045647558,-0.040339703,-0.035031847,-0.029723992,-0.026539278,-0.024416136,-0.023354565,-0.022292994,-0.020169851,-0.01910828,-0.018046709,-0.016985138,-0.015923567,-0.015923567,-0.018046709,-0.022292994,-0.026539278,-0.030785563,-0.033970276,-0.037154989,-0.041401274,-0.045647558,-0.048832272,-0.049893843,-0.047770701,-0.044585987,-0.040339703,-0.036093418,-0.030785563,-0.023354565,-0.011677282,-0.001061571,0.006369427,0.012738854,0.020169851,0.024416136,0.024416136,0.021231423,0.015923567,0.011677282,0.005307856,0,-0.005307856,-0.011677282,-0.018046709,-0.027600849,-0.026539278,-0.014861996,-0.007430998,-0.001061571,0.004246285,0.008492569,0.010615711,0.012738854,0.013800425,0.014861996,0.015923567,0.015923567,0.015923567,0.015923567,0.015923567,0.015923567,0.015923567,0.018046709,0.020169851,0.022292994,0.023354565,0.024416136,0.026539278,0.02866242,0.031847134,0.036093418,0.039278132,0.042462845,0.04670913,0.052016985,0.057324841,0.060509554,0.060509554,0.059447983,0.055201699,0.050955414,0.044585987,0.036093418,0.020169851,0.00955414,0,-0.011677282,-0.023354565,-0.037154989,-0.047770701,-0.050955414,-0.053078556,-0.05626327,-0.057324841,-0.053078556,-0.045647558,-0.037154989,-0.026539278,-0.010615711,0.007430998,0.032908705,0.077494692,0.139065817,0.221868365,0.33014862,0.458598726,0.591295117,0.712314225,0.803609342,0.831210191,0.819532909,0.73566879,0.578556263,0.376857749,0.174097665,0.007430998,-0.100849257,-0.138004246,-0.148619958,-0.156050955,-0.158174098,-0.159235669,-0.156050955,-0.151804671,-0.144373673,-0.130573248,-0.11358811,-0.109341826,-0.107218684,-0.105095541,-0.10403397,-0.102972399,-0.10403397,-0.10403397,-0.10403397,-0.10403397,-0.10403397,-0.10403397,-0.10403397,-0.102972399,-0.102972399,-0.101910828,-0.100849257,-0.100849257,-0.099787686,-0.098726115,-0.096602972,-0.09447983,-0.092356688,-0.091295117,-0.088110403,-0.082802548,-0.076433121,-0.069002123,-0.061571125,-0.054140127,-0.04670913,-0.039278132,-0.031847134,-0.024416136,-0.01910828,-0.013800425,-0.008492569,-0.005307856,-0.001061571,0.001061571,0.006369427,0.010615711,0.016985138,0.025477707,0.037154989,0.048832272,0.058386412,0.064755839,0.071125265,0.077494692,0.083864119,0.089171975,0.093418259,0.097664544,0.101910828,0.10403397,0.10403397,0.101910828,0.098726115,0.093418259,0.087048832,0.078556263,0.064755839,0.049893843,0.037154989,0.026539278,0.014861996,0.004246285,0,-0.002123142,-0.004246285,-0.006369427,-0.008492569,-0.010615711,-0.012738854,-0.014861996,-0.018046709,-0.020169851,-0.023354565,-0.025477707,-0.027600849,-0.029723992,-0.031847134,-0.035031847,-0.041401274,-0.047770701,-0.049893843,-0.052016985,-0.055201699,-0.059447983,-0.062632696,-0.059447983,-0.052016985,-0.048832272,-0.045647558,-0.042462845,-0.039278132,-0.036093418,-0.033970276,-0.030785563,-0.026539278,-0.023354565,-0.020169851,-0.016985138,-0.015923567,-0.014861996,-0.014861996,-0.014861996,-0.013800425,-0.012738854,-0.010615711,-0.00955414,-0.008492569,-0.007430998,-0.006369427,-0.005307856,-0.003184713,-0.002123142,-0.001061571,-0.001061571,0,0,0,0.002123142,0.002123142,0.003184713,0.002123142,0.002123142,0.003184713,0.004246285,0.005307856,0.006369427,0.007430998,0.007430998,0.008492569,0.00955414,0.010615711,0.011677282,0.012738854,0.012738854,0.012738854,0.011677282,0.011677282,0.011677282,0.012738854,0.013800425,0.014861996,0.015923567,0.018046709,0.020169851,0.024416136,0.027600849,0.030785563,0.033970276,0.037154989,0.039278132,0.043524416,0.048832272,0.053078556,0.057324841,0.058386412,0.058386412,0.05626327,0.053078556,0.048832272,0.043524416,0.037154989,0.02866242,0.013800425,0.004246285,0,-0.001061571,-0.004246285,-0.006369427,-0.008492569,-0.010615711,-0.011677282,-0.012738854,-0.012738854,-0.011677282,-0.00955414,-0.006369427,-0.001061571,0.004246285,0.012738854,0.029723992,0.061571125,0.11358811,0.183651805,0.277070064,0.392781316,0.526539278,0.66029724,0.776008493,0.835456476,0.854564756,0.826963907,0.740976645,0.595541401,0.420382166,0.244161359,0.092356688,-0.016985138,-0.062632696,-0.07537155,-0.082802548,-0.089171975,-0.095541401,-0.100849257,-0.105095541,-0.108280255,-0.111464968,-0.114649682,-0.118895966,-0.121019108,-0.123142251,-0.124203822,-0.125265393,-0.125265393,-0.124203822,-0.122080679,-0.118895966,-0.114649682,-0.110403397,-0.105095541,-0.100849257,-0.09447983,-0.088110403,-0.082802548,-0.080679406,-0.078556263,-0.077494692,-0.076433121,-0.07537155,-0.074309979,-0.073248408,-0.071125265,-0.070063694,-0.067940552,-0.06581741,-0.063694268,-0.059447983,-0.054140127,-0.047770701,-0.036093418,-0.016985138,-0.008492569,-0.004246285,-0.001061571,0,0.003184713,0.006369427,0.00955414,0.014861996,0.020169851,0.026539278,0.033970276,0.04670913,0.059447983,0.073248408,0.081740977,0.089171975,0.09447983,0.098726115,0.102972399,0.105095541,0.105095541,0.102972399,0.099787686,0.09447983,0.089171975,0.082802548,0.076433121,0.066878981,0.055201699,0.044585987,0.033970276,0.022292994,0.010615711,0.003184713,0,-0.004246285,-0.008492569,-0.012738854,-0.016985138,-0.022292994,-0.02866242,-0.035031847,-0.029723992,-0.025477707,-0.023354565,-0.021231423,-0.01910828,-0.018046709,-0.01910828,-0.020169851,-0.023354565,-0.025477707,-0.027600849,-0.02866242,-0.029723992,-0.031847134,-0.033970276,-0.036093418,-0.036093418,-0.036093418,-0.035031847,-0.035031847,-0.036093418,-0.036093418,-0.036093418,-0.036093418,-0.035031847,-0.033970276,-0.032908705,-0.032908705,-0.032908705,-0.032908705,-0.031847134,-0.030785563,-0.029723992,-0.029723992,-0.030785563,-0.031847134,-0.033970276,-0.035031847,-0.036093418,-0.038216561,-0.037154989,-0.031847134,-0.027600849,-0.025477707,-0.023354565,-0.021231423,-0.018046709,-0.014861996,-0.011677282,-0.007430998,-0.005307856,-0.002123142,0,0.002123142,0.003184713,0.004246285,0.003184713,0.002123142,0.001061571,0,0,-0.001061571,-0.002123142,-0.004246285,-0.005307856,-0.006369427,-0.007430998,-0.008492569,-0.008492569,-0.00955414,-0.008492569,-0.007430998,-0.006369427,-0.003184713,0,0.002123142,0.005307856,0.008492569,0.012738854,0.021231423,0.030785563,0.042462845,0.048832272,0.053078556,0.057324841,0.060509554,0.063694268,0.064755839,0.06581741,0.064755839,0.062632696,0.060509554,0.05626327,0.053078556,0.048832272,0.044585987,0.038216561,0.030785563,0.022292994,0.013800425,0.008492569,0.003184713,0,-0.003184713,-0.006369427,-0.008492569,-0.010615711,-0.010615711,-0.010615711,-0.010615711,-0.010615711,-0.00955414,-0.008492569,-0.006369427,-0.003184713,0,0.011677282,0.047770701,0.106157113,0.18895966,0.294055202,0.417197452,0.554140127,0.695329087,0.823779193,0.907643312,0.917197452,0.881104034,0.759023355,0.59447983,0.41507431,0.251592357,0.122080679,0.030785563,-0.025477707,-0.057324841,-0.078556263,-0.091295117,-0.098726115,-0.102972399,-0.106157113,-0.109341826,-0.110403397,-0.112526539,-0.11358811,-0.115711253,-0.116772824,-0.118895966,-0.119957537,-0.119957537,-0.115711253,-0.109341826,-0.102972399,-0.098726115,-0.09447983,-0.091295117,-0.087048832,-0.08492569,-0.082802548,-0.080679406,-0.079617834,-0.078556263,-0.078556263,-0.078556263,-0.077494692,-0.077494692,-0.076433121,-0.07537155,-0.074309979,-0.071125265,-0.067940552,-0.064755839,-0.061571125,-0.057324841,-0.053078556,-0.04670913,-0.039278132,-0.029723992,-0.01910828,-0.004246285,0.004246285,0.010615711,0.016985138,0.022292994,0.029723992,0.040339703,0.049893843,0.060509554,0.071125265,0.082802548,0.091295117,0.098726115,0.10403397,0.107218684,0.108280255,0.109341826,0.110403397,0.111464968,0.112526539,0.112526539,0.111464968,0.106157113,0.098726115,0.091295117,0.081740977,0.073248408,0.064755839,0.052016985,0.030785563,0.018046709,0.011677282,0.006369427,0.002123142,0.001061571,0.001061571,0.002123142,0.002123142,0.003184713,0.004246285,0.006369427,0.00955414,0.011677282,0.008492569,0.002123142,-0.003184713,-0.011677282,-0.014861996,-0.016985138,-0.01910828,-0.020169851,-0.021231423,-0.023354565,-0.024416136,-0.024416136,-0.024416136,-0.024416136,-0.023354565,-0.022292994,-0.020169851,-0.016985138,-0.026539278,-0.036093418,-0.042462845,-0.04670913,-0.04670913,-0.043524416,-0.039278132,-0.033970276,-0.026539278,-0.014861996,-0.00955414,-0.006369427,-0.003184713,-0.001061571,0,0,0.001061571,0.001061571,0.001061571,0.001061571,0.001061571,0.001061571,0.001061571,0.001061571,0,0,0,0,0,0,0,0,0,0,0.002123142,0.003184713,0.005307856,0.006369427,0.007430998,0.00955414,0.011677282,0.013800425,0.015923567,0.016985138,0.015923567,0.012738854,0.008492569,0.003184713,-0.001061571,-0.00955414,-0.013800425,-0.010615711,-0.005307856,-0.002123142,0,0.001061571,0.002123142,0.003184713,0.005307856,0.006369427,0.008492569,0.010615711,0.012738854,0.015923567,0.020169851,0.02866242,0.039278132,0.04670913,0.052016985,0.05626327,0.060509554,0.063694268,0.066878981,0.070063694,0.07537155,0.082802548,0.087048832,0.089171975,0.092356688,0.09447983,0.088110403,0.067940552,0.042462845,0.026539278,0.013800425,0.005307856,0,-0.005307856,-0.010615711,-0.016985138,-0.020169851,-0.015923567,-0.00955414,-0.006369427,-0.003184713,-0.001061571,0,0.002123142,0.004246285,0.006369427,0.008492569,0.011677282,0.016985138,0.035031847,0.067940552,0.118895966,0.190021231,0.280254777,0.389596603,0.513800425,0.643312102,0.761146497,0.851380042,0.880042463,0.872611465,0.799363057,0.666666667,0.504246285,0.337579618,0.191082803,0.079617834,0.003184713,-0.052016985,-0.095541401,-0.116772824,-0.124203822,-0.117834395,-0.109341826,-0.102972399,-0.10403397,-0.117834395,-0.126326964,-0.132696391,-0.138004246,-0.142250531,-0.143312102,-0.14118896,-0.139065817,-0.134819533,-0.13163482,-0.129511677,-0.126326964,-0.123142251,-0.118895966,-0.115711253,-0.112526539,-0.110403397,-0.108280255,-0.107218684,-0.105095541,-0.101910828,-0.099787686,-0.096602972,-0.093418259,-0.089171975,-0.083864119,-0.077494692,-0.072186837,-0.066878981,-0.059447983,-0.054140127,-0.050955414,-0.048832272,-0.045647558,-0.043524416,-0.039278132,-0.035031847,-0.029723992,-0.022292994,-0.011677282,-0.002123142,0.006369427,0.015923567,0.025477707,0.039278132,0.055201699,0.06581741,0.072186837,0.078556263,0.083864119,0.090233546,0.096602972,0.10403397,0.107218684,0.105095541,0.097664544,0.088110403,0.073248408,0.061571125,0.052016985,0.041401274,0.031847134,0.022292994,0.012738854,0.008492569,0.006369427,0.004246285,0.003184713,0.002123142,0,0,-0.002123142,-0.004246285,-0.005307856,-0.006369427,-0.008492569,-0.00955414,-0.011677282,-0.013800425,-0.016985138,-0.023354565,-0.02866242,-0.029723992,-0.02866242,-0.026539278,-0.023354565,-0.020169851,-0.021231423,-0.030785563,-0.038216561,-0.044585987,-0.048832272,-0.049893843,-0.050955414,-0.050955414,-0.052016985,-0.052016985,-0.052016985,-0.045647558,-0.042462845,-0.039278132,-0.038216561,-0.037154989,-0.035031847,-0.033970276,-0.031847134,-0.029723992,-0.026539278,-0.023354565,-0.016985138,-0.018046709,-0.032908705,-0.041401274,-0.047770701,-0.053078556,-0.057324841,-0.059447983,-0.058386412,-0.05626327,-0.050955414,-0.044585987,-0.022292994,0.006369427,0.014861996,0.018046709,0.021231423,0.014861996,0.008492569,0.005307856,0.002123142,0,0,0.001061571,0.003184713,0.005307856,0.008492569,0.011677282,0.018046709,0.016985138,0.007430998,0,-0.005307856,-0.011677282,-0.013800425,-0.014861996,-0.015923567,-0.016985138,-0.01910828,-0.018046709,-0.007430998,0,0.007430998,0.012738854,0.016985138,0.020169851,0.022292994,0.023354565,0.024416136,0.024416136,0.025477707,0.025477707,0.026539278,0.026539278,0.026539278,0.027600849,0.027600849,0.02866242,0.029723992,0.029723992,0.029723992,0.030785563,0.031847134,0.032908705,0.035031847,0.036093418,0.039278132,0.044585987,0.059447983,0.076433121,0.090233546,0.096602972,0.100849257,0.102972399,0.102972399,0.097664544,0.090233546,0.080679406,0.067940552,0.059447983,0.047770701,0.033970276,0.020169851,0.003184713,-0.007430998,-0.013800425,-0.018046709,-0.021231423,-0.024416136,-0.025477707,-0.02866242,-0.031847134,-0.033970276,-0.030785563,-0.023354565,-0.002123142,0.027600849,0.080679406,0.163481953,0.277070064,0.417197452,0.571125265,0.723991507,0.85881104,0.957537155,1,0.97133758,0.871549894,0.710191083,0.50955414,0.302547771,0.128450106,0.012738854,-0.026539278,-0.040339703,-0.049893843,-0.058386412,-0.087048832,-0.126326964,-0.149681529,-0.158174098,-0.161358811,-0.158174098,-0.1507431,-0.145435244,-0.138004246,-0.130573248,-0.123142251,-0.115711253,-0.108280255,-0.100849257,-0.09447983,-0.089171975,-0.08492569,-0.081740977,-0.079617834,-0.078556263,-0.079617834,-0.082802548,-0.085987261,-0.090233546,-0.09447983,-0.099787686,-0.105095541,-0.107218684,-0.108280255,-0.110403397,-0.112526539,-0.10403397,-0.090233546,-0.07537155,-0.059447983,-0.044585987,-0.032908705,-0.024416136,-0.010615711,-0.002123142,0.002123142,0.006369427,0.010615711,0.014861996,0.018046709,0.021231423,0.025477707,0.029723992,0.037154989,0.043524416,0.049893843,0.059447983,0.07537155,0.09447983,0.101910828,0.102972399,0.10403397,0.10403397,0.105095541,0.105095541,0.102972399,0.099787686,0.09447983,0.089171975,0.082802548,0.076433121,0.069002123,0.063694268,0.057324841,0.04670913,0.02866242,0.018046709,0.013800425,0.00955414,0.007430998,0.004246285,0.001061571,-0.002123142,-0.005307856,-0.008492569,-0.011677282,-0.015923567,-0.021231423,-0.026539278,-0.030785563,-0.033970276,-0.036093418,-0.038216561,-0.040339703,-0.042462845,-0.043524416,-0.045647558,-0.04670913,-0.04670913,-0.04670913,-0.045647558,-0.043524416,-0.040339703,-0.037154989,-0.033970276,-0.02866242,-0.024416136,-0.025477707,-0.030785563,-0.038216561,-0.042462845,-0.04670913,-0.052016985,-0.055201699,-0.05626327,-0.054140127,-0.049893843,-0.042462845,-0.036093418,-0.030785563,-0.025477707,-0.01910828,-0.012738854,-0.008492569,-0.006369427,-0.004246285,-0.003184713,-0.001061571,0,0.001061571,0.002123142,0.004246285,0.004246285,0.005307856,0.006369427,0.007430998,0.00955414,0.011677282,0.012738854,0.012738854,0.012738854,0.012738854,0.013800425,0.014861996,0.016985138,0.018046709,0.018046709,0.016985138,0.015923567,0.013800425,0.012738854,0.011677282,0.010615711,0.00955414,0.008492569,0.007430998,0.006369427,0.005307856,0.005307856,0.004246285,0.004246285,0.003184713,0.003184713,0.004246285,0.004246285,0.005307856,0.006369427,0.007430998,0.008492569,0.00955414,0.010615711,0.011677282,0.012738854,0.013800425,0.015923567,0.018046709,0.022292994,0.038216561,0.052016985,0.059447983,0.064755839,0.070063694,0.074309979,0.079617834,0.085987261,0.085987261,0.074309979,0.057324841,0.035031847,0.022292994,0.013800425,0.007430998,0.002123142,-0.002123142,-0.008492569,-0.014861996,-0.01910828,-0.015923567,-0.010615711,-0.006369427,-0.003184713,-0.001061571,0,0.003184713,0.005307856,0.008492569,0.013800425,0.020169851,0.04670913,0.093418259,0.164543524,0.261146497,0.378980892,0.508492569,0.634819533,0.743099788,0.821656051,0.838641189,0.826963907,0.747346072,0.612526539,0.441613588,0.269639066,0.128450106,0.031847134,-0.015923567,-0.039278132,-0.057324841,-0.076433121,-0.088110403,-0.09447983,-0.097664544,-0.100849257,-0.102972399,-0.105095541,-0.107218684,-0.109341826,-0.11358811,-0.115711253,-0.109341826,-0.097664544,-0.091295117,-0.087048832,-0.082802548,-0.080679406,-0.079617834,-0.078556263,-0.077494692,-0.074309979,-0.072186837,-0.069002123,-0.067940552,-0.06581741,-0.064755839,-0.063694268,-0.062632696,-0.060509554,-0.058386412,-0.05626327,-0.054140127,-0.050955414,-0.047770701,-0.043524416,-0.040339703,-0.037154989,-0.035031847,-0.032908705,-0.029723992,-0.025477707,-0.018046709,-0.006369427,0.006369427,0.021231423,0.035031847,0.045647558,0.054140127,0.060509554,0.06581741,0.071125265,0.07537155,0.077494692,0.078556263,0.080679406,0.082802548,0.083864119,0.08492569,0.085987261,0.087048832,0.087048832,0.085987261,0.085987261,0.083864119,0.081740977,0.078556263,0.07537155,0.072186837,0.069002123,0.062632696,0.052016985,0.043524416,0.037154989,0.030785563,0.024416136,0.015923567,0.006369427,-0.007430998,-0.02866242,-0.040339703,-0.045647558,-0.049893843,-0.053078556,-0.055201699,-0.05626327,-0.055201699,-0.054140127,-0.052016985,-0.050955414,-0.048832272,-0.047770701,-0.045647558,-0.043524416,-0.041401274,-0.040339703,-0.039278132,-0.039278132,-0.041401274,-0.042462845,-0.044585987,-0.04670913,-0.052016985,-0.05626327,-0.052016985,-0.043524416,-0.039278132,-0.036093418,-0.033970276,-0.031847134,-0.029723992,-0.027600849,-0.025477707,-0.023354565,-0.020169851,-0.018046709,-0.014861996,-0.012738854,-0.011677282,-0.010615711,-0.00955414,-0.008492569,-0.006369427,-0.005307856,-0.003184713,0,0.001061571,0.003184713,0.005307856,0.006369427,0.006369427,0.006369427,0.005307856,0.004246285,0.002123142,0.001061571,0,0,-0.001061571,-0.002123142,-0.003184713,-0.004246285,-0.005307856,-0.007430998,-0.008492569,-0.00955414,-0.00955414,-0.00955414,-0.00955414,-0.008492569,-0.007430998,-0.007430998,-0.007430998,-0.007430998,-0.008492569,-0.008492569,-0.010615711,-0.008492569,0.002123142,0.014861996,0.027600849,0.041401274,0.054140127,0.06581741,0.070063694,0.072186837,0.074309979,0.076433121,0.074309979,0.057324841,0.038216561,0.020169851,0.008492569,0,-0.007430998,-0.012738854,-0.015923567,-0.01910828,-0.023354565,-0.022292994
